theta,Mie,CI0,CI3,CI3+CSU,CI3*+CSU
0,5.08760787,10.5181637,5.12395641,5.54325753,5.14059133
0.1,5.08760132,10.5174175,5.12395777,5.5432587,5.14057557
0.2,5.08758165,10.5151791,5.12396183,5.54326224,5.1405283
0.3,5.08754885,10.5114495,5.1239685,5.54326813,5.14044957
0.4,5.08750289,10.5062298,5.12397767,5.54327641,5.14033942
0.5,5.08744374,10.4995222,5.12398914,5.54328708,5.14019796
0.6,5.08737134,10.4913289,5.12400271,5.54330017,5.14002529
0.7,5.08728563,10.4816531,5.12401807,5.5433157,5.13982154
0.8,5.08718656,10.4704982,5.12403492,5.54333372,5.13958689
0.9,5.08707403,10.4578685,5.12405287,5.54335424,5.13932152
1,5.08694796,10.4437687,5.12407149,5.54337733,5.13902563
1.1,5.08680826,10.428204,5.12409032,5.54340302,5.13869946
1.2,5.08665481,10.4111802,5.12410884,5.54343136,5.13834326
1.3,5.08648751,10.3927039,5.12412649,5.54346241,5.13795732
1.4,5.08630623,10.3727822,5.12414266,5.54349623,5.13754193
1.5,5.08611084,10.3514225,5.1241567,5.54353288,5.13709742
1.6,5.08590122,10.3286334,5.12416793,5.54357242,5.13662414
1.7,5.08567723,10.3044236,5.12417562,5.54361493,5.13612244
1.8,5.08543871,10.2788027,5.12417901,5.54366048,5.13559273
1.9,5.08518553,10.251781,5.12417729,5.54370914,5.1350354
2,5.08491752,10.2233692,5.12416963,5.54376099,5.13445088
2.1,5.08463455,10.193579,5.12415516,5.54381611,5.13383962
2.2,5.08433645,10.1624226,5.124133,5.54387458,5.13320208
2.3,5.08402307,10.1299129,5.12410222,5.54393649,5.13253875
2.4,5.08369426,10.0960636,5.12406188,5.54400192,5.13185011
2.5,5.08334986,10.0608891,5.124011,5.54407095,5.13113669
2.6,5.08298973,10.0244045,5.1239486,5.54414368,5.13039902
2.7,5.08261371,9.98662579,5.12387367,5.5442202,5.12963764
2.8,5.08222166,9.94756955,5.1237852,5.54430058,5.12885311
2.9,5.08181345,9.90725329,5.12368216,5.54438492,5.12804601
3,5.08138895,9.86569528,5.12356351,5.54447331,5.12721692
3.1,5.08094804,9.8229146,5.12342822,5.54456583,5.12636644
3.2,5.08049059,9.77893117,5.12327524,5.54466257,5.12549517
3.3,5.08001651,9.73376577,5.12310354,5.54476361,5.12460375
3.4,5.0795257,9.68744002,5.12291207,5.54486903,5.12369279
3.5,5.07901809,9.63997641,5.12269983,5.54497892,5.12276294
3.6,5.0784936,9.59139831,5.12246579,5.54509335,5.12181484
3.7,5.07795218,9.54173001,5.12220896,5.54521239,5.12084915
3.8,5.07739379,9.49099665,5.12192838,5.54533613,5.11986653
3.9,5.07681841,9.43922433,5.12162309,5.54546463,5.11886764
4,5.07622604,9.38644002,5.12129216,5.54559795,5.11785316
4.1,5.07561667,9.33267165,5.12093472,5.54573615,5.11682376
4.2,5.07499036,9.27794804,5.1205499,5.5458793,5.11578013
4.3,5.07434715,9.22229896,5.1201369,5.54602745,5.11472295
4.4,5.0736871,9.16575507,5.11969493,5.54618064,5.11365289
4.5,5.07301033,9.10834798,5.11922327,5.54633892,5.11257066
4.6,5.07231694,9.0501102,5.11872125,5.54650232,5.11147693
4.7,5.07160708,8.99107514,5.11818825,5.54667088,5.1103724
4.8,5.07088091,8.9312771,5.11762369,5.54684463,5.10925776
4.9,5.07013862,8.87075126,5.11702709,5.54702358,5.10813368
5,5.06938043,8.80953366,5.11639799,5.54720776,5.10700085
5.1,5.06860659,8.74766117,5.11573603,5.54739716,5.10585996
5.2,5.06781735,8.68517148,5.1150409,5.5475918,5.10471169
5.3,5.06701302,8.62210306,5.11431237,5.54779167,5.10355671
5.4,5.06619392,8.5584951,5.11355029,5.54799675,5.10239569
5.5,5.06536041,8.49438754,5.11275459,5.54820704,5.10122931
5.6,5.06451286,8.42982095,5.11192527,5.5484225,5.10005821
5.7,5.06365168,8.36483655,5.11106241,5.54864311,5.09888307
5.8,5.06277731,8.2994761,5.11016619,5.54886883,5.09770453
5.9,5.06189022,8.23378191,5.10923687,5.5490996,5.09652324
6,5.0609909,8.16779671,5.10827479,5.54933538,5.09533983
6.1,5.06007987,8.10156365,5.10728039,5.54957612,5.09415493
6.2,5.05915768,8.03512617,5.10625419,5.54982173,5.09296918
6.3,5.05822491,7.96852798,5.10519681,5.55007216,5.09178318
6.4,5.05728217,7.90181296,5.10410894,5.55032731,5.09059753
6.5,5.0563301,7.83502507,5.10299138,5.5505871,5.08941285
6.6,5.05536934,7.76820828,5.10184502,5.55085143,5.08822972
6.7,5.0544006,7.7014065,5.10067082,5.55112021,5.08704873
6.8,5.05342457,7.63466342,5.09946986,5.55139332,5.08587043
6.9,5.052442,7.56802252,5.09824327,5.55167066,5.08469541
7,5.05145364,7.50152687,5.09699229,5.55195209,5.08352421
7.1,5.05046028,7.43521911,5.09571823,5.55223749,5.08235738
7.2,5.04946272,7.36914132,5.0944225,5.55252673,5.08119544
7.3,5.04846178,7.30333491,5.09310656,5.55281967,5.08003894
7.4,5.04745831,7.23784055,5.09177198,5.55311616,5.07888838
7.5,5.04645317,7.17269807,5.09042037,5.55341605,5.07774428
7.6,5.04544724,7.10794632,5.08905342,5.55371919,5.07660712
7.7,5.0444414,7.04362315,5.08767291,5.55402541,5.07547739
7.8,5.04343657,6.97976524,5.08628063,5.55433455,5.07435558
7.9,5.04243367,6.91640809,5.08487848,5.55464644,5.07324214
8,5.04143362,6.85358587,5.08346837,5.5549609,5.07213754
8.1,5.04043737,6.79133139,5.08205228,5.55527776,5.07104223
8.2,5.03944585,6.72967602,5.08063223,5.55559684,5.06995664
8.3,5.03846002,6.6686496,5.07921027,5.55591794,5.06888121
8.4,5.03748083,6.60828043,5.07778849,5.55624088,5.06781635
8.5,5.03650925,6.54859516,5.076369,5.55656548,5.06676248
8.6,5.03554622,6.4896188,5.07495391,5.55689154,5.06571999
8.7,5.0345927,6.4313747,5.07354539,5.55721885,5.0646893
8.8,5.03364963,6.37388446,5.07214558,5.55754724,5.06367077
8.9,5.03271797,6.317168,5.07075662,5.55787649,5.06266478
9,5.03179865,6.26124347,5.06938067,5.55820642,5.06167171
9.1,5.03089258,6.20612736,5.06801986,5.55853682,5.06069192
9.2,5.03000069,6.15183443,5.0666763,5.5588675,5.05972575
9.3,5.02912388,6.0983778,5.06535209,5.55919825,5.05877355
9.4,5.02826302,6.04576895,5.06404929,5.55952888,5.05783566
9.5,5.02741898,5.99401778,5.06276992,5.55985919,5.05691242
9.6,5.02659261,5.94313269,5.06151595,5.56018899,5.05600413
9.7,5.02578472,5.89312061,5.06028932,5.56051808,5.05511112
9.8,5.02499612,5.84398712,5.0590919,5.56084627,5.0542337
9.9,5.02422758,5.79573649,5.0579255,5.56117337,5.05337216
10,5.02347984,5.74837179,5.05679187,5.56149919,5.0525268
10.1,5.02275362,5.70189501,5.05569266,5.56182356,5.05169791
10.2,5.0220496,5.65630714,5.05462948,5.56214628,5.05088577
10.3,5.02136844,5.61160827,5.05360382,5.56246719,5.05009066
10.4,5.02071076,5.56779772,5.05261711,5.56278611,5.04931285
10.5,5.02007712,5.52487417,5.05167067,5.56310287,5.04855259
10.6,5.01946809,5.48283575,5.05076572,5.56341731,5.04781015
10.7,5.01888416,5.44168017,5.04990339,5.56372927,5.04708578
10.8,5.01832581,5.40140484,5.04908469,5.56403859,5.04637972
10.9,5.01779345,5.362007,5.04831052,5.56434514,5.04569221
11,5.01728747,5.32348381,5.04758169,5.56464875,5.04502348
11.1,5.01680821,5.2858325,5.04689888,5.56494931,5.04437377
11.2,5.01635596,5.24905047,5.04626264,5.56524667,5.04374328
11.3,5.01593097,5.21313537,5.04567343,5.56554072,5.04313224
11.4,5.01553345,5.17808524,5.04513155,5.56583133,5.04254086
11.5,5.01516356,5.14389858,5.04463723,5.56611839,5.04196934
11.6,5.01482142,5.11057444,5.04419052,5.5664018,5.04141786
11.7,5.01450707,5.07811254,5.0437914,5.56668145,5.04088664
11.8,5.01422056,5.04651327,5.04343969,5.56695726,5.04037583
11.9,5.01396183,5.01577781,5.0431351,5.56722914,5.03988563
12,5.01373083,4.9859082,5.04287723,5.56749702,5.0394162
12.1,5.01352742,4.9569073,5.04266554,5.56776082,5.03896771
12.2,5.01335144,4.92877893,5.04249939,5.56802047,5.0385403
12.3,5.01320268,4.9015278,5.04237802,5.56827594,5.03813412
12.4,5.01308086,4.87515959,5.04230053,5.56852715,5.03774931
12.5,5.01298568,4.84968093,5.04226596,5.56877408,5.03738601
12.6,5.01291678,4.82509936,5.0422732,5.56901668,5.03704433
12.7,5.01287379,4.80142337,5.04232104,5.56925493,5.03672439
12.8,5.01285624,4.77866231,5.0424082,5.5694888,5.03642628
12.9,5.01286366,4.75682639,5.04253328,5.56971829,5.03615011
13,5.01289554,4.73592659,5.04269479,5.56994338,5.03589596
13.1,5.01295131,4.71597462,5.04289115,5.57016407,5.03566389
13.2,5.01303036,4.69698283,5.04312071,5.57038037,5.03545398
13.3,5.01313207,4.67896414,5.04338174,5.57059228,5.03526627
13.4,5.01325576,4.66193193,5.04367244,5.57079983,5.0351008
13.5,5.01340073,4.64589995,5.04399092,5.57100303,5.0349576
13.6,5.01356623,4.63088218,5.04433528,5.57120192,5.03483668
13.7,5.01375152,4.61689276,5.04470352,5.57139653,5.03473805
13.8,5.01395577,4.60394581,5.04509361,5.57158689,5.0346617
13.9,5.01417819,4.59205535,5.04550349,5.57177306,5.03460759
14,5.01441792,4.58123511,5.04593105,5.57195507,5.03457569
14.1,5.01467408,4.57149844,5.04637415,5.57213298,5.03456595
14.2,5.01494581,4.56285815,5.04683063,5.57230685,5.03457829
14.3,5.01523217,4.55532634,5.04729833,5.57247674,5.03461263
14.4,5.01553227,4.5489143,5.04777505,5.57264271,5.03466887
14.5,5.01584515,4.54363236,5.04825862,5.57280483,5.03474689
14.6,5.01616987,4.5394897,5.04874686,5.57296316,5.03484655
14.7,5.01650547,4.53649429,5.04923758,5.57311778,5.03496771
14.8,5.01685099,4.53465269,5.04972864,5.57326877,5.0351102
14.9,5.01720546,4.53396999,5.05021791,5.57341619,5.03527382
15,5.01756791,4.53444962,5.05070327,5.57356013,5.03545838
15.1,5.01793737,4.53609329,5.05118266,5.57370066,5.03566364
15.2,5.01831286,4.53890087,5.05165406,5.57383786,5.03588937
15.3,5.01869343,4.54287033,5.05211547,5.57397182,5.03613529
15.4,5.01907812,4.54799758,5.05256498,5.57410261,5.03640114
15.5,5.01946597,4.55427651,5.0530007,5.57423031,5.03668661
15.6,5.01985605,4.56169883,5.05342082,5.574355,5.03699138
15.7,5.02024743,4.57025411,5.05382361,5.57447676,5.0373151
15.8,5.02063922,4.5799297,5.0542074,5.57459566,5.03765742
15.9,5.02103051,4.59071072,5.05457059,5.57471178,5.03801796
16,5.02142043,4.60258008,5.05491167,5.5748252,5.0383963
16.1,5.02180814,4.61551846,5.05522922,5.57493597,5.03879204
16.2,5.02219281,4.62950436,5.0555219,5.57504419,5.03920473
16.3,5.02257364,4.64451412,5.05578848,5.5751499,5.03963391
16.4,5.02294986,4.66052195,5.05602781,5.57525318,5.04007909
16.5,5.02332072,4.67750005,5.05623884,5.57535408,5.04053977
16.6,5.02368551,4.69541862,5.05642064,5.57545265,5.04101544
16.7,5.02404355,4.71424596,5.05657238,5.57554897,5.04150556
16.8,5.02439419,4.73394858,5.05669332,5.57564306,5.04200955
16.9,5.02473683,4.75449128,5.05678286,5.57573498,5.04252685
17,5.02507088,4.77583727,5.05684049,5.57582477,5.04305687
17.1,5.02539582,4.79794827,5.05686583,5.57591247,5.04359897
17.2,5.02571113,4.82078463,5.0568586,5.5759981,5.04415254
17.3,5.02601637,4.84430549,5.05681865,5.5760817,5.04471693
17.4,5.02631112,4.86846886,5.05674594,5.57616329,5.04529147
17.5,5.02659501,4.89323178,5.05664055,5.57624289,5.04587548
17.6,5.02686769,4.91855042,5.05650267,5.5763205,5.04646827
17.7,5.02712889,4.94438027,5.05633263,5.57639614,5.04706912
17.8,5.02737836,4.97067621,5.05613086,5.57646982,5.04767733
17.9,5.0276159,4.99739267,5.0558979,5.57654152,5.04829214
18,5.02784134,5.02448378,5.05563443,5.57661125,5.04891282
18.1,5.02805459,5.05190344,5.05534122,5.57667899,5.04953861
18.2,5.02825557,5.07960548,5.05501916,5.57674473,5.05016875
18.3,5.02844427,5.1075438,5.05466927,5.57680845,5.05080244
18.4,5.02862069,5.13567242,5.05429265,5.57687012,5.05143892
18.5,5.02878492,5.16394565,5.05389054,5.57692971,5.0520774
18.6,5.02893707,5.19231816,5.05346424,5.57698718,5.05271707
18.7,5.02907728,5.22074507,5.0530152,5.5770425,5.05335714
18.8,5.02920576,5.24918209,5.05254493,5.57709563,5.0539968
18.9,5.02932275,5.27758555,5.05205506,5.57714652,5.05463526
19,5.02942852,5.30591251,5.0515473,5.57719512,5.0552717
19.1,5.02952341,5.33412084,5.05102344,5.57724137,5.05590531
19.2,5.02960777,5.36216926,5.05048536,5.57728523,5.0565353
19.3,5.02968201,5.39001742,5.04993503,5.57732662,5.05716086
19.4,5.02974656,5.41762597,5.04937447,5.57736549,5.0577812
19.5,5.0298019,5.44495658,5.04880579,5.57740177,5.05839553
19.6,5.02984853,5.47197199,5.04823115,5.5774354,5.05900305
19.7,5.029887,5.49863608,5.04765277,5.5774663,5.05960301
19.8,5.02991788,5.52491386,5.04707292,5.57749442,5.06019462
19.9,5.02994178,5.55077154,5.04649393,5.57751966,5.06077715
20,5.02995931,5.57617651,5.04591815,5.57754198,5.06134983
20.1,5.02997115,5.60109742,5.04534798,5.57756128,5.06191196
20.2,5.02997797,5.62550413,5.04478583,5.57757751,5.06246281
20.3,5.02998047,5.64936776,5.04423416,5.57759058,5.06300169
20.4,5.02997938,5.67266071,5.04369541,5.57760043,5.06352792
20.5,5.02997544,5.69535662,5.04317205,5.57760698,5.06404085
20.6,5.0299694,5.71743042,5.04266654,5.57761017,5.06453982
20.7,5.02996204,5.7388583,5.04218133,5.57760994,5.06502424
20.8,5.02995414,5.7596177,5.04171887,5.57760621,5.0654935
20.9,5.02994649,5.77968736,5.04128158,5.57759892,5.06594704
21,5.02993989,5.79904724,5.04087185,5.57758801,5.06638431
21.1,5.02993513,5.81767854,5.04049203,5.57757344,5.0668048
21.2,5.02993303,5.83556373,5.04014443,5.57755514,5.06720802
21.3,5.02993438,5.85268646,5.03983132,5.57753307,5.06759351
21.4,5.02993998,5.86903161,5.03955488,5.57750718,5.06796084
21.5,5.02995063,5.88458526,5.03931727,5.57747744,5.06830962
21.6,5.02996711,5.89933466,5.03912053,5.57744382,5.06863948
21.7,5.02999021,5.91326822,5.03896665,5.57740627,5.06895009
21.8,5.03002067,5.9263755,5.03885753,5.57736479,5.06924114
21.9,5.03005926,5.93864722,5.03879496,5.57731934,5.06951238
22,5.03010669,5.95007517,5.03878065,5.57726994,5.06976358
22.1,5.03016367,5.96065227,5.03881617,5.57721656,5.06999455
22.2,5.0302309,5.97037253,5.03890302,5.57715922,5.07020513
22.3,5.03030904,5.97923099,5.03904254,5.57709792,5.0703952
22.4,5.03039872,5.98722377,5.03923597,5.57703268,5.07056469
22.5,5.03050055,5.99434802,5.03948441,5.57696353,5.07071355
22.6,5.0306151,6.00060191,5.03978881,5.5768905,5.07084179
22.7,5.03074291,6.00598459,5.04015001,5.57681363,5.07094943
22.8,5.0308845,6.01049621,5.04056867,5.57673296,5.07103656
22.9,5.03104034,6.01413792,5.04104532,5.57664857,5.07110329
23,5.03121084,6.01691178,5.04158033,5.57656051,5.07114978
23.1,5.03139642,6.01882083,5.04217391,5.57646885,5.07117622
23.2,5.03159742,6.01986902,5.04282611,5.57637368,5.07118285
23.3,5.03181413,6.02006123,5.04353682,5.57627509,5.07116993
23.4,5.03204684,6.01940325,5.04430576,5.57617318,5.07113778
23.5,5.03229575,6.01790175,5.04513249,5.57606805,5.07108676
23.6,5.03256104,6.01556429,5.04601639,5.57595983,5.07101725
23.7,5.03284283,6.0123993,5.04695669,5.57584863,5.07092968
23.8,5.03314119,6.00841606,5.04795243,5.57573458,5.07082451
23.9,5.03345615,6.00362472,5.04900249,5.57561783,5.07070225
24,5.03378768,5.99803625,5.05010559,5.57549853,5.07056343
24.1,5.03413572,5.99166247,5.05126027,5.57537684,5.07040862
24.2,5.03450013,5.98451602,5.05246492,5.5752529,5.07023843
24.3,5.03488075,5.97661033,5.05371777,5.57512691,5.0700535
24.4,5.03527735,5.96795965,5.05501686,5.57499903,5.06985451
24.5,5.03568965,5.95857904,5.05636012,5.57486945,5.06964214
24.6,5.03611733,5.94848432,5.05774529,5.57473837,5.06941715
24.7,5.03656002,5.93769209,5.05916999,5.57460597,5.06918028
24.8,5.0370173,5.92621975,5.06063169,5.57447247,5.06893233
24.9,5.0374887,5.91408542,5.06212772,5.57433808,5.06867411
25,5.0379737,5.90130799,5.06365527,5.574203,5.06840646
25.1,5.03847174,5.8879071,5.06521144,5.57406746,5.06813024
25.2,5.03898223,5.87390311,5.06679318,5.57393168,5.06784634
25.3,5.0395045,5.8593171,5.06839734,5.5737959,5.06755566
25.4,5.04003788,5.84417086,5.07002067,5.57366034,5.06725913
25.5,5.04058163,5.8284869,5.07165984,5.57352523,5.06695767
25.6,5.04113498,5.81228838,5.07331141,5.57339082,5.06665224
25.7,5.04169714,5.79559917,5.07497188,5.57325735,5.0663438
25.8,5.04226727,5.77844378,5.07663767,5.57312505,5.06603334
25.9,5.0428445,5.76084736,5.07830515,5.57299416,5.06572184
26,5.04342793,5.7428357,5.07997065,5.57286494,5.06541028
26.1,5.04401664,5.7244352,5.08163043,5.57273763,5.06509967
26.2,5.04460969,5.70567282,5.08328077,5.57261246,5.064791
26.3,5.04520608,5.68657614,5.08491788,5.57248968,5.06448528
26.4,5.04580485,5.66717325,5.08653799,5.57236953,5.0641835
26.5,5.04640498,5.64749277,5.08813733,5.57225224,5.06388667
26.6,5.04700545,5.62756382,5.08971213,5.57213806,5.06359576
26.7,5.04760523,5.607416,5.09125865,5.57202721,5.06331177
26.8,5.04820327,5.58707933,5.09277319,5.57191993,5.06303567
26.9,5.04879854,5.56658424,5.09425208,5.57181643,5.06276843
27,5.04938999,5.54596156,5.0956917,5.57171695,5.06251098
27.1,5.04997657,5.52524241,5.09708852,5.57162169,5.06226428
27.2,5.05055723,5.50445825,5.09843906,5.57153086,5.06202923
27.3,5.05113094,5.48364077,5.09973992,5.57144467,5.06180673
27.4,5.05169668,5.46282189,5.10098783,5.57136331,5.06159766
27.5,5.05225344,5.44203369,5.10217957,5.57128697,5.06140287
27.6,5.05280021,5.42130837,5.10331208,5.57121583,5.06122318
27.7,5.05333601,5.4006782,5.1043824,5.57115006,5.0610594
27.8,5.05385991,5.38017546,5.1053877,5.57108984,5.06091231
27.9,5.05437095,5.35983241,5.10632529,5.57103531,5.06078263
28,5.05486825,5.3396812,5.10719265,5.57098663,5.06067108
28.1,5.05535093,5.31975381,5.10798738,5.57094392,5.06057834
28.2,5.05581814,5.30008203,5.10870727,5.57090732,5.06050503
28.3,5.0562691,5.28069736,5.10935027,5.57087694,5.06045178
28.4,5.05670302,5.26163094,5.10991452,5.57085289,5.06041913
28.5,5.0571192,5.24291352,5.11039831,5.57083527,5.06040762
28.6,5.05751695,5.22457535,5.11080016,5.57082415,5.06041773
28.7,5.05789564,5.20664615,5.11111877,5.57081961,5.0604499
28.8,5.05825469,5.18915502,5.11135303,5.57082171,5.06050452
28.9,5.05859355,5.17213035,5.11150203,5.5708305,5.06058197
29,5.05891175,5.15559979,5.11156511,5.57084602,5.06068253
29.1,5.05920886,5.13959017,5.11154176,5.57086829,5.06080649
29.2,5.0594845,5.1241274,5.11143174,5.57089732,5.06095405
29.3,5.05973836,5.10923643,5.111235,5.57093313,5.06112539
29.4,5.05997017,5.09494118,5.1109517,5.57097569,5.06132064
29.5,5.06017975,5.08126447,5.11058224,5.57102499,5.06153986
29.6,5.06036694,5.06822795,5.11012723,5.57108099,5.06178309
29.7,5.06053169,5.05585202,5.1095875,5.57114364,5.06205031
29.8,5.06067396,5.04415583,5.10896412,5.57121289,5.06234145
29.9,5.06079382,5.03315717,5.10825835,5.57128867,5.06265639
30,5.06089137,5.02287241,5.10747169,5.5713709,5.06299497
30.1,5.06096679,5.0133165,5.10660584,5.57145948,5.06335699
30.2,5.06102031,5.00450288,5.10566272,5.57155431,5.06374217
30.3,5.06105224,4.99644347,5.10464446,5.57165528,5.06415022
30.4,5.06106295,4.9891486,5.1035534,5.57176226,5.06458078
30.5,5.06105286,4.98262702,5.10239208,5.57187513,5.06503346
30.6,5.06102246,4.97688583,5.10116322,5.57199373,5.06550782
30.7,5.0609723,4.97193049,5.09986976,5.57211792,5.06600337
30.8,5.06090299,4.96776478,5.0985148,5.57224753,5.06651958
30.9,5.06081521,4.96439082,5.09710163,5.57238239,5.0670559
31,5.06070967,4.96180904,5.09563371,5.57252233,5.06761171
31.1,5.06058716,4.96001821,5.09411467,5.57266715,5.06818636
31.2,5.06044852,4.95901538,5.09254827,5.57281667,5.06877918
31.3,5.06029464,4.958796,5.09093845,5.57297069,5.06938943
31.4,5.06012645,4.95935384,5.08928927,5.573129,5.07001637
31.5,5.05994494,4.96068106,5.08760492,5.57329139,5.07065921
31.6,5.05975114,4.96276824,5.08588971,5.57345765,5.07131714
31.7,5.05954613,4.9656044,5.08414805,5.57362756,5.0719893
31.8,5.05933102,4.96917706,5.08238447,5.57380088,5.07267483
31.9,5.05910698,4.97347227,5.08060357,5.57397741,5.07337282
32,5.05887518,4.97847465,5.07881001,5.5741569,5.07408236
32.1,5.05863684,4.98416746,5.07700855,5.57433912,5.0748025
32.2,5.05839322,4.99053266,5.07520398,5.57452385,5.07553228
32.3,5.05814559,4.99755094,5.07340112,5.57471086,5.07627072
32.4,5.05789525,5.00520184,5.07160483,5.5748999,5.07701684
32.5,5.05764351,5.01346375,5.06982,5.57509075,5.07776961
32.6,5.0573917,5.02231404,5.06805148,5.57528318,5.07852804
32.7,5.05714117,5.03172907,5.06630415,5.57547695,5.07929109
32.8,5.05689327,5.04168432,5.06458284,5.57567185,5.08005774
32.9,5.05664934,5.05215444,5.06289236,5.57586764,5.08082696
33,5.05641076,5.06311329,5.06123745,5.5760641,5.0815977
33.1,5.05617886,5.0745341,5.0596228,5.57626103,5.08236895
33.2,5.055955,5.08638944,5.05805303,5.57645821,5.08313966
33.3,5.05574052,5.09865139,5.05653265,5.57665544,5.08390883
33.4,5.05553672,5.11129156,5.05506609,5.5768525,5.08467542
33.5,5.05534493,5.12428116,5.05365766,5.57704922,5.08543844
33.6,5.05516641,5.13759112,5.05231153,5.5772454,5.0861969
33.7,5.05500243,5.15119212,5.05103174,5.57744087,5.08694982
